Data for N-BK7 glass taken from https://www.schott.com/shop/advanced-optics/de/Optisches-Glas/N-BK7/c/glass-N-BK7
lambda[nm],n
312.6,1.54862
334.1,1.54272
365.0,1.53627
404.7,1.53024
435.8,1.52668
480.0,1.52283
486.1,1.52238
546.1,1.51872
587.6,1.51680
589.3,1.51673
632.8,1.51509
643.8,1.51472
656.3,1.51432
706.5,1.51289
852.1,1.50980
